1.490713587487781
1.4565004887585533
1.5102639296187683
1.6324535679374388
1.4076246334310851
1.3734115347018572
1.2267839687194526
1.6666666666666665
1.4516129032258065
1.5884652981427174
1.270772238514174
1.4565004887585533
1.5933528836754642
1.7253176930596288
1.5640273704789833
1.3196480938416422
1.295210166177908
1.2512218963831867
1.3098729227761485
1.2512218963831867
1.2561094819159335
0.8846529814271751
0.8895405669599219
1.1241446725317692
1.2756598240469208
1.099706744868035
1.0703812316715542
0.9481915933528837
1.3587487781036167
1.1730205278592376
1.0068426197458455
0.9237536656891496
1.1388074291300097
1.158357771260997
1.0899315738025415
0.9579667644183774
0.9237536656891496
0.9237536656891496
0.9335288367546433
0.9286412512218964
0.9481915933528837
0.9433040078201369
0.7917888563049853
0.7917888563049853
0.7820136852394917
1.0263929618768328
1.5347018572825024
1.720430107526882
1.3440860215053763
1.0948191593352883
0.8211143695014662
1.4271749755620724
2.39980449657869
1.5004887585532747
1.1436950146627565
1.0068426197458455
1.3049853372434017
2.1603128054740957
1.2512218963831867
1.0703812316715542
0.7966764418377321
0.826001955034213
0.8553274682306939
1.1485826001955033
1.129032258064516
1.2218963831867058
1.8670576735092865
1.5151515151515151
1.5249266862170088
1.3391984359726294
1.3391984359726294
2.341153470185728
1.6764418377321602
1.35386119257087
1.1388074291300097
1.2805474095796676
1.911045943304008
2.820136852394917
1.7497556207233629
1.4711632453567938
1.2512218963831867
1.1388074291300097
1.1388074291300097
1.1436950146627565
1.3929618768328444
1.3880742913000976
1.7790811339198438
1.8475073313782993
1.6031280547409579
1.5542521994134897
1.4760508308895406
1.3391984359726294
1.3294232649071358
2.258064516129032
1.8719452590420333
1.7693059628543502
1.705767350928641
1.5542521994134897
1.3685239491691104
1.5493646138807429
1.9696969696969697
2.1700879765395893
1.5493646138807429
1.6568914956011729
1.5151515151515151
1.3880742913000976
1.3343108504398826
1.4858260019550342
2.4975562072336266
1.4222873900293256
1.5640273704789833
1.1436950146627565
1.4418377321603129
2.898338220918866
1.5884652981427174
1.4222873900293256
1.2854349951124144
1.402737047898338
2.4486803519061584
1.652003910068426
1.4565004887585533
1.1925708699902249
1.1681329423264906
1.1827956989247312
1.1730205278592376
1.2023460410557185
0.6989247311827956
0.7233626588465298
0.7575757575757576
0.9921798631476051
1.5102639296187683
0.9237536656891496
0.8113391984359726
0.8504398826979471
1.0410557184750733
2.072336265884653
1.0899315738025415
1.15347018572825
0.8553274682306939
1.0312805474095796
1.9305962854349952
1.8132942326490715
0.9628543499511242
0.9775171065493646
0.7917888563049853
0.7478005865102639
0.7575757575757576
1.4956011730205279
1.5151515151515151
1.5395894428152492
1.9745845552297165
1.3636363636363635
1.436950146627566
1.4565004887585533
1.6226783968719452
1.6422287390029324
1.4173998044965788
1.2854349951124144
1.3734115347018572
1.6324535679374388
1.378299120234604
1.4173998044965788
1.3098729227761485
1.3978494623655913
1.3978494623655913
1.412512218963832
1.3734115347018572
1.295210166177908
0.8064516129032258
0.9824046920821115
1.2267839687194526
1.35386119257087
1.0263929618768328
1.0166177908113392
0.8895405669599219
0.9775171065493646
1.2267839687194526
1.3343108504398826
1.0117302052785924
0.9433040078201369
0.8651026392961878
1.1339198435972628
1.402737047898338
1.1339198435972628
0.9872922776148583
0.9530791788856305
0.8357771260997067
0.8015640273704789
0.7966764418377321
0.9530791788856305
0.9824046920821115
1.3831867057673508
1.4271749755620724
1.1485826001955033
1.1192570869990224
1.0850439882697946
1.1436950146627565
1.4418377321603129
1.5395894428152492
1.3049853372434017
1.104594330400782
1.099706744868035
1.3294232649071358
1.6617790811339197
1.1192570869990224
1.1827956989247312
1.158357771260997
0.9824046920821115
0.8944281524926687
0.9726295210166178
0.7478005865102639
0.8211143695014662
1.0410557184750733
1.4956011730205279
1.2267839687194526
1.1094819159335287
0.8553274682306939
0.8406647116324535
1.2903225806451613
1.6129032258064515
1.4418377321603129
1.0801564027370478
0.9726295210166178
1.2756598240469208
2.043010752688172
1.241446725317693
0.967741935483871
0.8455522971652003
0.7869012707722385
0.8308895405669598
0.772238514173998
1.0019550342130987
1.0166177908113392
1.158357771260997
1.5298142717497556
1.1143695014662756
1.1436950146627565
1.2561094819159335
1.3880742913000976
1.4956011730205279
1.1925708699902249
1.1681329423264906
1.104594330400782
1.2756598240469208
1.4467253176930597
1.241446725317693
1.241446725317693
1.2023460410557185
1.2023460410557185
1.1730205278592376
1.1730205278592376
1.2072336265884653
1.1779081133919844
1.2463343108504399
1.2561094819159335
1.744868035190616
1.2316715542521994
1.295210166177908
1.3440860215053763
1.2072336265884653
1.300097751710655
1.544477028347996
1.7253176930596288
1.3880742913000976
1.3343108504398826
1.217008797653959
1.4076246334310851
1.4076246334310851
1.8866080156402738
1.4418377321603129
1.402737047898338
1.2267839687194526
1.1827956989247312
0.8162267839687194
1.04594330400782
1.1485826001955033
1.4858260019550342
1.1974584555229717
1.0606060606060606
0.8748778103616814
1.0166177908113392
1.3831867057673508
1.3880742913000976
1.3294232649071358
1.0410557184750733
0.8699902248289346
1.2756598240469208
1.5786901270772238
1.3391984359726294
1.1485826001955033
0.8944281524926687
0.8797653958944283
0.8895405669599219
0.8504398826979471
0.718475073313783
0.7429130009775171
0.9042033235581624
1.2023460410557185
1.2463343108504399
0.9188660801564028
0.8944281524926687
1.241446725317693
1.2365591397849462
0.8797653958944283
0.9433040078201369
0.7820136852394917
1.4565004887585533
1.0850439882697946
1.300097751710655
1.0948191593352883
0.9042033235581624
0.7820136852394917
0.7478005865102639
0.7429130009775171
0.718475073313783
0.7820136852394917
1.075268817204301
1.3978494623655913
1.1192570869990224
1.2023460410557185
0.8406647116324535
0.8211143695014662
1.5933528836754642
1.7497556207233629
1.2267839687194526
0.8651026392961878
0.9090909090909092
1.544477028347996
1.241446725317693
1.3343108504398826
0.8797653958944283
0.7771260997067448
0.7771260997067448
0.7869012707722385
0.772238514173998
0.7624633431085044
0.7282502443792767
0.7331378299120235
1.0068426197458455
1.2316715542521994
1.0557184750733137
0.9042033235581624
0.7624633431085044
1.0606060606060606
1.104594330400782
0.9481915933528837
0.8699902248289346
0.7380254154447703
1.35386119257087
1.04594330400782
1.021505376344086
0.8748778103616814
0.8308895405669598
0.8015640273704789
0.7526881720430108
0.7478005865102639
0.7526881720430108
0.9237536656891496
0.9237536656891496
1.1681329423264906
1.2316715542521994
1.1436950146627565
1.0703812316715542
0.9579667644183774
1.1436950146627565
1.3636363636363635
1.099706744868035
1.021505376344086
1.0361681329423265
1.348973607038123
1.1632453567937437
0.9384164222873901
0.9090909090909092
0.913978494623656
0.9335288367546433
0.9237536656891496
0.9384164222873901
0.9433040078201369
0.9188660801564028
0.9090909090909092
1.0948191593352883
2.09188660801564
1.3636363636363635
1.35386119257087
1.1436950146627565
1.35386119257087
2.204301075268817
1.2267839687194526
0.9433040078201369
2.1652003910068425
2.70772238514174
1.6666666666666665
2.018572825024438
1.241446725317693
1.075268817204301
1.075268817204301
1.0654936461388074
0.9726295210166178
0.9042033235581624
0.8944281524926687
0.9481915933528837
1.5493646138807429
1.5347018572825024
1.0606060606060606
1.0703812316715542
1.1730205278592376
1.798631476050831
1.7937438905180842
1.1094819159335287
1.050830889540567
1.4271749755620724
1.935483870967742
1.4320625610948192
0.9433040078201369
0.8504398826979471
0.8504398826979471
0.8553274682306939
0.8699902248289346
0.772238514173998
0.8015640273704789
0.8015640273704789
0.913978494623656
1.0606060606060606
1.1779081133919844
1.0019550342130987
0.9530791788856305
0.8993157380254155
1.1241446725317692
1.2903225806451613
1.0166177908113392
1.0312805474095796
0.9530791788856305
0.8455522971652003
1.241446725317693
1.1925708699902249
1.0312805474095796
1.0117302052785924
1.0410557184750733
0.8895405669599219
0.8748778103616814
0.8944281524926687
1.6226783968719452
1.6177908113391983
1.6324535679374388
1.6666666666666665
1.8719452590420333
1.3343108504398826
1.4956011730205279
1.6226783968719452
1.6764418377321602
1.8768328445747802
1.5933528836754642
1.6177908113391983
1.7302052785923756
1.7155425219941347
2.1652003910068425
1.4760508308895406
1.4858260019550342
1.652003910068426
1.7008797653958942
1.7008797653958942
1.6226783968719452
1.0068426197458455
1.04594330400782
1.1681329423264906
1.2561094819159335
1.1827956989247312
1.1339198435972628
1.15347018572825
0.9775171065493646
1.1974584555229717
1.7008797653958942
1.0948191593352883
1.050830889540567
0.9921798631476051
1.050830889540567
1.300097751710655
1.436950146627566
1.075268817204301
1.0410557184750733
0.9872922776148583
1.021505376344086
1.15347018572825
0.7038123167155426
0.7086999022482894
1.2121212121212122
1.0654936461388074
1.0557184750733137
1.075268817204301
0.8651026392961878
0.826001955034213
1.1925708699902249
1.2023460410557185
1.0606060606060606
0.9286412512218964
0.8944281524926687
1.104594330400782
1.2121212121212122
1.0361681329423265
0.8308895405669598
0.826001955034213
0.7966764418377321
0.8015640273704789
0.826001955034213
1.4222873900293256
1.4467253176930597
1.4613880742913001
1.9550342130987293
1.5933528836754642
1.4809384164222874
1.436950146627566
1.4467253176930597
1.8035190615835779
1.774193548387097
1.5884652981427174
1.3929618768328444
1.412512218963832
1.9745845552297165
2.0332355816226784
1.798631476050831
1.4809384164222874
1.490713587487781
1.5493646138807429
1.5689149560117301
1.598240469208211
1.295210166177908
1.4271749755620724
1.4711632453567938
1.6177908113391983
1.3440860215053763
1.3880742913000976
1.5786901270772238
1.5347018572825024
1.627565982404692
1.4418377321603129
1.3049853372434017
1.4076246334310851
1.7350928641251224
1.8035190615835779
1.5640273704789833
1.7350928641251224
1.3391984359726294
1.490713587487781
1.7399804496578692
1.6666666666666665
1.598240469208211
0.7917888563049853
0.8211143695014662
1.217008797653959
1.436950146627566
0.9824046920821115
0.9335288367546433
0.8211143695014662
0.7673509286412512
1.0263929618768328
1.3734115347018572
0.967741935483871
0.9872922776148583
0.7917888563049853
0.7624633431085044
1.1925708699902249
1.300097751710655
0.9970674486803519
0.9286412512218964
0.7966764418377321
0.7526881720430108
0.7478005865102639
0.6989247311827956
0.7233626588465298
1.3880742913000976
1.300097751710655
1.0410557184750733
1.021505376344086
0.7575757575757576
0.7282502443792767
1.2756598240469208
1.2561094819159335
1.7106549364613879
1.0557184750733137
0.8748778103616814
0.7429130009775171
0.7820136852394917
1.1779081133919844
1.5640273704789833
1.3978494623655913
1.2561094819159335
0.9090909090909092
0.6451612903225806
0.7233626588465298
0.7233626588465298
0.7282502443792767
0.9481915933528837
1.1827956989247312
1.2023460410557185
0.9237536656891496
0.8015640273704789
0.9726295210166178
1.2609970674486803
1.2805474095796676
1.050830889540567
0.8308895405669598
1.3831867057673508
0.8993157380254155
1.0312805474095796
0.7673509286412512
0.7673509286412512
0.7429130009775171
0.718475073313783
0.7282502443792767
0.718475073313783
0.7038123167155426
0.7086999022482894
0.967741935483871
1.0361681329423265
0.9286412512218964
0.8406647116324535
0.7135874877810362
0.9335288367546433
1.3734115347018572
1.378299120234604
1.0850439882697946
0.8406647116324535
0.7233626588465298
1.0410557184750733
1.1436950146627565
1.3734115347018572
1.0850439882697946
0.7086999022482894
0.7086999022482894
0.7038123167155426
