1.0606060606060606
1.0606060606060606
1.0801564027370478
0.9237536656891496
0.9286412512218964
1.075268817204301
1.0850439882697946
1.0948191593352883
0.9872922776148583
0.913978494623656
0.9872922776148583
1.099706744868035
1.0801564027370478
1.099706744868035
0.9872922776148583
0.9237536656891496
0.9970674486803519
1.0899315738025415
1.0703812316715542
1.0606060606060606
1.0703812316715542
1.2267839687194526
1.2267839687194526
1.2218963831867058
1.3734115347018572
1.3049853372434017
1.2658846529814272
1.2854349951124144
1.2561094819159335
1.1632453567937437
1.2805474095796676
1.270772238514174
1.3440860215053763
1.2365591397849462
1.1779081133919844
1.270772238514174
1.2463343108504399
1.3343108504398826
1.3147605083088953
1.2365591397849462
1.2365591397849462
1.2316715542521994
1.104594330400782
1.0948191593352883
1.0850439882697946
0.9188660801564028
0.8162267839687194
0.8064516129032258
0.7869012707722385
0.826001955034213
0.9970674486803519
0.8748778103616814
0.8553274682306939
0.8406647116324535
0.8455522971652003
0.9188660801564028
1.0703812316715542
0.9042033235581624
0.8308895405669598
0.8895405669599219
0.9188660801564028
1.075268817204301
1.04594330400782
1.104594330400782
1.1241446725317692
1.1436950146627565
1.2316715542521994
1.1779081133919844
1.1094819159335287
1.1192570869990224
1.1436950146627565
1.2218963831867058
1.1436950146627565
1.1241446725317692
1.1388074291300097
1.1241446725317692
1.2072336265884653
1.1681329423264906
1.15347018572825
1.0801564027370478
1.0703812316715542
1.0948191593352883
1.15347018572825
1.1632453567937437
1.6373411534701856
1.6129032258064515
1.6031280547409579
1.744868035190616
1.35386119257087
1.4320625610948192
1.544477028347996
1.6617790811339197
1.5689149560117301
1.6862170087976538
1.3978494623655913
1.4956011730205279
1.573802541544477
1.5689149560117301
1.6031280547409579
1.7253176930596288
1.5640273704789833
1.5542521994134897
1.4613880742913001
1.5151515151515151
1.5493646138807429
1.3978494623655913
1.378299120234604
1.35386119257087
1.2072336265884653
1.129032258064516
1.2267839687194526
1.3294232649071358
1.4516129032258065
1.3636363636363635
1.1436950146627565
1.0948191593352883
1.187683284457478
1.2903225806451613
1.3343108504398826
1.2023460410557185
1.0899315738025415
1.270772238514174
1.3294232649071358
1.3294232649071358
1.2805474095796676
1.3294232649071358
0.7086999022482894
0.6940371456500488
0.6989247311827956
0.772238514173998
0.8162267839687194
0.7820136852394917
0.7380254154447703
0.7771260997067448
0.7282502443792767
0.8797653958944283
1.0068426197458455
0.7575757575757576
0.7575757575757576
0.7575757575757576
0.7135874877810362
0.7771260997067448
0.9579667644183774
0.718475073313783
0.7380254154447703
0.7282502443792767
0.718475073313783
0.689149560117302
0.6842619745845552
0.6940371456500488
0.6744868035190615
0.7135874877810362
0.7380254154447703
0.6793743890518084
0.7038123167155426
3.4261974584555226
0.6940371456500488
0.7820136852394917
0.6842619745845552
0.6793743890518084
0.6842619745845552
3.3528836754643203
0.6989247311827956
0.6989247311827956
0.6842619745845552
0.6989247311827956
4.569892473118279
0.8162267839687194
1.324535679374389
1.3294232649071358
1.324535679374389
1.270772238514174
1.1730205278592376
1.295210166177908
1.3929618768328444
1.4467253176930597
1.3587487781036167
1.217008797653959
1.3147605083088953
1.4467253176930597
1.4076246334310851
1.2609970674486803
1.378299120234604
1.4467253176930597
1.520039100684262
1.5249266862170088
1.5004887585532747
1.4858260019550342
1.4956011730205279
1.7302052785923756
1.720430107526882
1.7350928641251224
1.5640273704789833
1.4173998044965788
1.5689149560117301
1.705767350928641
1.7644183773216033
1.7106549364613879
1.4809384164222874
1.4565004887585533
1.6617790811339197
1.7350928641251224
1.6568914956011729
1.4173998044965788
1.5249266862170088
1.6666666666666665
1.7399804496578692
1.6226783968719452
1.6617790811339197
1.7106549364613879
1.402737047898338
1.3929618768328444
1.3978494623655913
1.1925708699902249
1.158357771260997
1.3294232649071358
1.3587487781036167
1.2658846529814272
1.1143695014662756
1.3098729227761485
1.3147605083088953
1.2072336265884653
1.187683284457478
1.2805474095796676
1.3147605083088953
1.3098729227761485
1.3147605083088953
1.3098729227761485
1.3147605083088953
1.3147605083088953
1.324535679374389
0.913978494623656
0.913978494623656
0.8748778103616814
0.860215053763441
0.8748778103616814
0.8944281524926687
0.9433040078201369
0.8455522971652003
0.860215053763441
0.8651026392961878
0.8357771260997067
0.9384164222873901
0.8504398826979471
0.8651026392961878
0.8504398826979471
0.9188660801564028
0.913978494623656
0.8993157380254155
0.9042033235581624
0.8993157380254155
0.9188660801564028
1.2072336265884653
1.241446725317693
1.1143695014662756
1.104594330400782
1.1143695014662756
1.1632453567937437
1.2463343108504399
1.217008797653959
1.1094819159335287
1.099706744868035
1.0654936461388074
1.1485826001955033
1.2218963831867058
1.2463343108504399
1.2267839687194526
1.104594330400782
1.104594330400782
1.1241446725317692
1.1974584555229717
1.300097751710655
1.2561094819159335
0.9726295210166178
0.9726295210166178
0.8064516129032258
0.8553274682306939
0.9188660801564028
0.9530791788856305
0.9433040078201369
0.8944281524926687
0.8748778103616814
0.8553274682306939
0.8357771260997067
0.9237536656891496
0.9579667644183774
0.9433040078201369
0.913978494623656
0.8651026392961878
0.8651026392961878
0.8504398826979471
0.9530791788856305
0.9775171065493646
0.9286412512218964
0.9579667644183774
1.0068426197458455
1.050830889540567
1.1241446725317692
1.1632453567937437
1.021505376344086
0.9921798631476051
1.187683284457478
1.1388074291300097
1.0948191593352883
1.04594330400782
0.9579667644183774
1.158357771260997
1.158357771260997
1.1485826001955033
0.9726295210166178
0.9286412512218964
0.9481915933528837
0.9042033235581624
0.9188660801564028
0.9335288367546433
0.7331378299120235
0.7771260997067448
0.8357771260997067
0.7086999022482894
0.7478005865102639
0.7380254154447703
0.7429130009775171
0.7820136852394917
0.7575757575757576
0.7135874877810362
0.7526881720430108
0.7478005865102639
0.7673509286412512
0.772238514173998
0.718475073313783
0.718475073313783
0.7282502443792767
0.7331378299120235
0.7478005865102639
0.7478005865102639
0.7233626588465298
3.0205278592375366
3.064516129032258
2.7956989247311825
2.4780058651026393
2.429130009775171
3.1622678396871944
3.7292277614858262
4.0469208211143695
3.2453567937438903
2.7223851417399803
3.1085043988269794
3.548387096774194
3.9980449657869013
3.6070381231671558
3.12316715542522
2.732160312805474
3.0009775171065494
3.2697947214076244
3.7194525904203326
4.037145650048876
4.081133919843597
1.129032258064516
1.1241446725317692
1.1730205278592376
1.0166177908113392
0.967741935483871
1.0654936461388074
1.1094819159335287
1.1485826001955033
1.158357771260997
1.0606060606060606
1.0019550342130987
1.1094819159335287
1.1681329423264906
1.1827956989247312
1.104594330400782
1.0019550342130987
1.1388074291300097
1.158357771260997
1.1925708699902249
1.2072336265884653
1.1827956989247312
0.8211143695014662
0.8406647116324535
0.8162267839687194
0.9530791788856305
0.8455522971652003
0.826001955034213
0.8211143695014662
0.860215053763441
0.9237536656891496
0.8015640273704789
0.8357771260997067
0.7917888563049853
1.1241446725317692
0.8308895405669598
0.8797653958944283
0.8455522971652003
0.8455522971652003
0.826001955034213
0.8553274682306939
0.8308895405669598
0.8357771260997067
1.1681329423264906
1.1485826001955033
1.1339198435972628
1.0899315738025415
1.0606060606060606
1.1436950146627565
1.1143695014662756
1.1192570869990224
1.1339198435972628
1.0703812316715542
1.099706744868035
1.1143695014662756
1.1192570869990224
1.1241446725317692
1.0606060606060606
1.0263929618768328
1.0801564027370478
1.0801564027370478
0.7624633431085044
0.7820136852394917
0.7673509286412512
1.7253176930596288
1.705767350928641
1.6862170087976538
1.4858260019550342
1.5053763440860215
1.6031280547409579
1.7106549364613879
1.705767350928641
1.5004887585532747
1.4613880742913001
1.5395894428152492
1.6764418377321602
1.7253176930596288
1.5347018572825024
1.4711632453567938
1.5493646138807429
1.6373411534701856
1.6568914956011729
1.6666666666666665
1.6617790811339197
1.6764418377321602
0.9335288367546433
0.9188660801564028
0.913978494623656
0.8797653958944283
0.7966764418377321
0.7869012707722385
0.9481915933528837
0.9090909090909092
0.7917888563049853
0.7624633431085044
0.8455522971652003
0.9286412512218964
1.129032258064516
0.8553274682306939
0.7673509286412512
0.8064516129032258
0.9090909090909092
1.0068426197458455
1.2218963831867058
1.1827956989247312
1.1339198435972628
0.8064516129032258
0.826001955034213
0.7771260997067448
0.7966764418377321
0.7673509286412512
0.9042033235581624
1.5151515151515151
0.8308895405669598
0.8162267839687194
0.8064516129032258
0.9188660801564028
1.2805474095796676
0.8455522971652003
0.8113391984359726
0.8211143695014662
0.9188660801564028
1.0068426197458455
0.9530791788856305
0.8651026392961878
0.8699902248289346
0.8553274682306939
1.2218963831867058
0.7526881720430108
0.7673509286412512
1.0703812316715542
0.9628543499511242
0.9921798631476051
0.8553274682306939
0.8064516129032258
0.9775171065493646
1.050830889540567
0.9335288367546433
0.8553274682306939
1.129032258064516
0.8748778103616814
0.9286412512218964
0.8357771260997067
0.8504398826979471
0.8455522971652003
0.826001955034213
0.7771260997067448
0.7771260997067448
1.5493646138807429
1.5151515151515151
1.5395894428152492
1.3343108504398826
1.4613880742913001
1.5542521994134897
1.5591397849462365
1.5347018572825024
1.300097751710655
1.3929618768328444
1.5933528836754642
1.5835777126099706
1.573802541544477
1.4516129032258065
1.3440860215053763
1.4271749755620724
1.5591397849462365
1.5640273704789833
1.544477028347996
1.544477028347996
1.544477028347996
1.324535679374389
1.324535679374389
1.2805474095796676
1.2658846529814272
1.1730205278592376
1.3587487781036167
1.3098729227761485
1.3098729227761485
1.295210166177908
1.1925708699902249
1.295210166177908
1.324535679374389
1.348973607038123
1.3685239491691104
1.1974584555229717
1.1730205278592376
1.2561094819159335
1.3587487781036167
1.3636363636363635
1.3831867057673508
1.3734115347018572
0.7673509286412512
0.7771260997067448
0.8455522971652003
0.8357771260997067
0.7820136852394917
0.7771260997067448
0.772238514173998
0.8113391984359726
0.8162267839687194
0.7771260997067448
0.7917888563049853
0.7673509286412512
0.7771260997067448
0.8406647116324535
0.860215053763441
0.7917888563049853
0.772238514173998
0.7624633431085044
0.7673509286412512
0.7673509286412512
0.7673509286412512
0.7135874877810362
0.6940371456500488
0.689149560117302
0.6989247311827956
0.7820136852394917
0.6940371456500488
0.6940371456500488
0.7038123167155426
0.6989247311827956
0.8846529814271751
0.7086999022482894
0.6940371456500488
0.689149560117302
0.7038123167155426
0.7575757575757576
0.7624633431085044
0.6989247311827956
0.6989247311827956
0.6842619745845552
0.689149560117302
0.6842619745845552
0.772238514173998
0.7673509286412512
0.7624633431085044
0.7429130009775171
0.7282502443792767
0.7429130009775171
0.7673509286412512
0.7917888563049853
0.7624633431085044
0.7331378299120235
0.7086999022482894
0.7282502443792767
0.7820136852394917
0.7771260997067448
0.7429130009775171
0.7282502443792767
0.7282502443792767
0.7478005865102639
0.8455522971652003
0.8211143695014662
0.8357771260997067
1.0117302052785924
0.9872922776148583
0.9970674486803519
0.9188660801564028
0.8504398826979471
0.8993157380254155
1.0312805474095796
1.0557184750733137
0.9042033235581624
0.8651026392961878
0.8553274682306939
0.9530791788856305
0.9970674486803519
1.0263929618768328
0.8797653958944283
0.8797653958944283
0.9433040078201369
0.9775171065493646
0.9775171065493646
0.9775171065493646
0.9775171065493646
