1.2316715542521994
1.2316715542521994
1.3098729227761485
1.652003910068426
1.4809384164222874
1.436950146627566
1.2365591397849462
1.3343108504398826
1.5004887585532747
1.4320625610948192
1.4760508308895406
1.300097751710655
1.5347018572825024
1.4467253176930597
1.348973607038123
1.2512218963831867
1.2267839687194526
1.2072336265884653
1.2121212121212122
1.2121212121212122
1.2023460410557185
1.3098729227761485
1.295210166177908
1.3098729227761485
1.1730205278592376
1.0899315738025415
1.2316715542521994
1.295210166177908
1.3929618768328444
1.1485826001955033
1.0606060606060606
1.2805474095796676
1.2609970674486803
1.3147605083088953
1.1339198435972628
1.0361681329423265
1.2121212121212122
1.3049853372434017
1.2756598240469208
1.3196480938416422
1.3098729227761485
1.3147605083088953
0.8553274682306939
0.8699902248289346
0.860215053763441
1.0068426197458455
1.021505376344086
1.1974584555229717
0.913978494623656
0.9188660801564028
0.8553274682306939
0.9579667644183774
1.1094819159335287
1.412512218963832
1.0312805474095796
1.0361681329423265
0.9188660801564028
0.9481915933528837
1.3636363636363635
1.2365591397849462
0.8895405669599219
0.8699902248289346
0.8015640273704789
1.1192570869990224
1.1388074291300097
1.158357771260997
1.3098729227761485
1.4711632453567938
1.5004887585532747
1.2561094819159335
1.2121212121212122
1.3343108504398826
1.1779081133919844
1.436950146627566
1.3978494623655913
1.2072336265884653
1.1681329423264906
1.187683284457478
1.4222873900293256
1.6959921798631474
1.217008797653959
1.2072336265884653
1.1681329423264906
1.1485826001955033
1.402737047898338
1.3978494623655913
1.652003910068426
1.8328445747800588
1.4418377321603129
1.6226783968719452
1.5689149560117301
1.490713587487781
1.6568914956011729
1.7888563049853374
1.5933528836754642
1.5591397849462365
1.5347018572825024
1.3929618768328444
1.3636363636363635
1.7497556207233629
1.5542521994134897
1.3685239491691104
1.3831867057673508
1.466275659824047
1.4516129032258065
1.2658846529814272
1.2463343108504399
1.2903225806451613
1.4858260019550342
1.300097751710655
1.5591397849462365
1.3440860215053763
1.2365591397849462
1.3734115347018572
1.681329423264907
1.3636363636363635
1.3391984359726294
1.3196480938416422
1.129032258064516
1.2756598240469208
1.5542521994134897
1.3929618768328444
1.412512218963832
1.2072336265884653
1.1827956989247312
1.1339198435972628
0.7282502443792767
0.7282502443792767
0.8553274682306939
0.9970674486803519
0.8064516129032258
0.860215053763441
0.7233626588465298
0.718475073313783
1.0166177908113392
1.1388074291300097
0.9042033235581624
0.8797653958944283
0.7135874877810362
0.8308895405669598
1.4760508308895406
0.9775171065493646
0.9921798631476051
0.8455522971652003
0.6989247311827956
0.6989247311827956
0.7086999022482894
0.6940371456500488
0.689149560117302
0.7820136852394917
0.9188660801564028
0.8944281524926687
0.7673509286412512
0.7331378299120235
0.7820136852394917
0.8308895405669598
1.241446725317693
0.8748778103616814
0.8015640273704789
0.8406647116324535
0.7331378299120235
1.0068426197458455
0.8993157380254155
0.8015640273704789
0.8162267839687194
0.718475073313783
0.9872922776148583
0.718475073313783
3.010752688172043
3.01564027370479
2.8836754643206257
2.7126099706744866
2.7956989247311825
2.9423264907135875
3.12316715542522
3.0498533724340176
2.7761485826001953
2.732160312805474
2.8641251221896384
3.005865102639296
3.0498533724340176
2.927663734115347
2.7956989247311825
2.781036168132942
2.8934506353861194
3.0840664711632453
3.2160312805474094
3.1818181818181817
3.201368523949169
1.7106549364613879
1.7302052785923756
1.7253176930596288
1.6617790811339197
1.412512218963832
1.4320625610948192
1.598240469208211
1.7253176930596288
1.6666666666666665
1.4320625610948192
1.3880742913000976
1.5835777126099706
1.720430107526882
1.6080156402737047
1.3294232649071358
1.4711632453567938
1.6373411534701856
1.6911045943304006
1.6666666666666665
1.5933528836754642
1.6129032258064515
0.7575757575757576
0.8015640273704789
0.8748778103616814
0.9628543499511242
1.1681329423264906
0.8455522971652003
0.7624633431085044
0.9433040078201369
0.9921798631476051
1.0117302052785924
0.9188660801564028
0.8015640273704789
0.8993157380254155
0.7771260997067448
0.9286412512218964
0.9042033235581624
1.0703812316715542
0.9384164222873901
0.8211143695014662
0.7771260997067448
0.7869012707722385
0.826001955034213
0.8357771260997067
1.0166177908113392
1.0312805474095796
1.021505376344086
0.9579667644183774
0.8944281524926687
0.9433040078201369
1.241446725317693
0.8797653958944283
0.9237536656891496
1.15347018572825
1.1730205278592376
0.9090909090909092
0.9237536656891496
0.8846529814271751
0.8993157380254155
0.8846529814271751
0.8993157380254155
0.8993157380254155
0.8944281524926687
1.2218963831867058
1.2561094819159335
1.1681329423264906
1.1436950146627565
1.099706744868035
1.129032258064516
1.2267839687194526
1.2609970674486803
1.2072336265884653
1.129032258064516
1.129032258064516
1.2023460410557185
1.2854349951124144
1.2463343108504399
1.1974584555229717
1.2072336265884653
1.1241446725317692
1.2609970674486803
1.2609970674486803
1.2658846529814272
1.2658846529814272
0.913978494623656
0.9384164222873901
0.9433040078201369
0.9286412512218964
1.104594330400782
1.1143695014662756
1.0117302052785924
0.9042033235581624
0.9433040078201369
1.0166177908113392
1.021505376344086
1.0703812316715542
1.099706744868035
1.0166177908113392
0.860215053763441
0.9286412512218964
0.9286412512218964
0.9824046920821115
1.0117302052785924
1.0166177908113392
0.8406647116324535
1.9990224828934506
2.0527859237536656
2.2482893450635384
2.19941348973607
2.2434017595307916
2.2678396871945257
2.145650048875855
2.262952101661779
2.458455522971652
2.3069403714565
2.311827956989247
2.350928641251222
2.429130009775171
2.4731182795698925
2.375366568914956
2.6099706744868034
2.781036168132942
2.2678396871945257
2.5562072336265884
2.5855327468230693
2.6930596285434993
0.7575757575757576
0.8308895405669598
1.2609970674486803
0.9090909090909092
1.0263929618768328
0.7478005865102639
0.8357771260997067
1.1730205278592376
0.9188660801564028
0.8357771260997067
0.7966764418377321
0.8504398826979471
1.0410557184750733
1.1192570869990224
0.9579667644183774
0.7820136852394917
0.7575757575757576
0.7429130009775171
0.7282502443792767
0.7331378299120235
0.772238514173998
1.3391984359726294
1.466275659824047
1.6471163245356792
1.7350928641251224
1.744868035190616
1.5933528836754642
1.3831867057673508
1.2267839687194526
1.7497556207233629
1.5249266862170088
1.8181818181818183
1.8914956011730206
1.099706744868035
1.5884652981427174
1.9257086999022484
1.6568914956011729
2.0283479960899315
2.013685239491691
1.627565982404692
1.7155425219941347
1.7008797653958942
0.8797653958944283
0.8748778103616814
0.8748778103616814
1.0410557184750733
1.1192570869990224
0.9872922776148583
1.0117302052785924
0.9384164222873901
1.0850439882697946
1.050830889540567
0.9921798631476051
0.9775171065493646
0.9286412512218964
1.0801564027370478
1.0166177908113392
1.0117302052785924
0.8944281524926687
0.8993157380254155
0.8797653958944283
0.8797653958944283
0.8651026392961878
0.913978494623656
0.9579667644183774
1.1827956989247312
1.3978494623655913
0.9775171065493646
1.0166177908113392
0.9384164222873901
0.8895405669599219
1.2267839687194526
1.1779081133919844
0.9042033235581624
0.8993157380254155
0.9042033235581624
1.5102639296187683
1.0801564027370478
0.9726295210166178
0.9481915933528837
0.9384164222873901
0.9481915933528837
0.9042033235581624
0.8797653958944283
0.7624633431085044
0.7380254154447703
1.099706744868035
1.0606060606060606
0.8406647116324535
0.8113391984359726
0.8064516129032258
0.7575757575757576
0.8308895405669598
1.1974584555229717
0.8162267839687194
0.8162267839687194
0.8015640273704789
0.8504398826979471
1.075268817204301
0.8699902248289346
0.8113391984359726
0.7282502443792767
0.7135874877810362
0.7135874877810362
0.7038123167155426
0.9481915933528837
0.8797653958944283
0.9579667644183774
0.9433040078201369
1.0899315738025415
0.9481915933528837
0.9042033235581624
0.8846529814271751
0.9090909090909092
0.9286412512218964
0.9579667644183774
0.860215053763441
0.9188660801564028
0.9237536656891496
0.9579667644183774
0.9530791788856305
1.0166177908113392
0.9384164222873901
0.8846529814271751
0.860215053763441
0.8406647116324535
0.9335288367546433
0.9481915933528837
0.9481915933528837
0.9530791788856305
1.050830889540567
1.0606060606060606
0.8504398826979471
0.9628543499511242
0.9579667644183774
1.1241446725317692
1.0361681329423265
0.9579667644183774
0.9188660801564028
0.9579667644183774
1.0117302052785924
1.0557184750733137
1.0606060606060606
0.9042033235581624
0.9481915933528837
0.9433040078201369
0.9530791788856305
1.5542521994134897
1.6080156402737047
1.5786901270772238
1.378299120234604
1.3831867057673508
1.4858260019550342
1.705767350928641
1.7350928641251224
1.6373411534701856
1.4858260019550342
1.3196480938416422
1.3831867057673508
1.5249266862170088
1.5884652981427174
1.5689149560117301
1.3636363636363635
1.3440860215053763
1.4320625610948192
1.6715542521994133
1.5591397849462365
1.6471163245356792
0.7135874877810362
0.718475073313783
0.7526881720430108
0.9921798631476051
1.2316715542521994
1.0166177908113392
0.8748778103616814
0.8504398826979471
1.0557184750733137
1.270772238514174
0.9384164222873901
0.8699902248289346
0.7820136852394917
0.9384164222873901
1.1827956989247312
1.5053763440860215
0.9579667644183774
0.8553274682306939
0.772238514173998
0.7771260997067448
0.7575757575757576
1.3734115347018572
1.3636363636363635
1.3734115347018572
1.5102639296187683
1.4320625610948192
1.6568914956011729
1.5689149560117301
1.5004887585532747
1.5102639296187683
1.6617790811339197
1.3440860215053763
1.4613880742913001
1.5347018572825024
1.4565004887585533
1.402737047898338
1.7106549364613879
1.378299120234604
1.6177908113391983
1.4858260019550342
1.412512218963832
1.3831867057673508
1.3978494623655913
1.4173998044965788
1.3880742913000976
1.270772238514174
1.2365591397849462
1.4076246334310851
1.7155425219941347
1.4467253176930597
1.2658846529814272
1.2463343108504399
1.4076246334310851
1.436950146627566
1.4222873900293256
1.35386119257087
1.1925708699902249
1.300097751710655
1.4516129032258065
1.4711632453567938
1.4613880742913001
1.4320625610948192
1.4320625610948192
0.7869012707722385
0.7917888563049853
0.8113391984359726
1.0361681329423265
1.1241446725317692
0.9775171065493646
0.9579667644183774
0.8357771260997067
0.7771260997067448
0.7771260997067448
1.1094819159335287
1.1925708699902249
0.8748778103616814
0.8211143695014662
0.7624633431085044
0.7282502443792767
0.7966764418377321
1.0557184750733137
1.0166177908113392
0.8455522971652003
0.7478005865102639
0.6940371456500488
0.7331378299120235
0.9628543499511242
0.9872922776148583
1.0019550342130987
0.9481915933528837
0.7086999022482894
0.689149560117302
0.7771260997067448
0.9775171065493646
1.2023460410557185
0.9335288367546433
0.9433040078201369
0.7233626588465298
0.7086999022482894
0.7086999022482894
0.9433040078201369
1.0019550342130987
0.9286412512218964
0.9090909090909092
0.7478005865102639
0.7624633431085044
0.7820136852394917
0.9042033235581624
0.7429130009775171
0.7966764418377321
0.8651026392961878
0.826001955034213
0.860215053763441
0.8797653958944283
0.8944281524926687
0.7820136852394917
0.772238514173998
0.8895405669599219
0.8748778103616814
0.8504398826979471
0.9579667644183774
0.772238514173998
0.7917888563049853
0.7478005865102639
0.7478005865102639
0.7575757575757576
0.9433040078201369
0.8993157380254155
0.9433040078201369
0.9530791788856305
1.0263929618768328
1.1485826001955033
1.5835777126099706
1.0361681329423265
1.0410557184750733
1.050830889540567
1.04594330400782
1.1730205278592376
1.4076246334310851
1.0410557184750733
1.075268817204301
0.9286412512218964
1.0166177908113392
1.857282502443793
1.0850439882697946
1.0703812316715542
1.1094819159335287
